 BEGIN header
 Number of ions          128
 Number of branches      384
 Number of wavevectors     1
 Frequencies in         cm-1
 IR intensities in      (D/A)**2/amu
 Raman intensities in   A**4
 Unit cell vectors (A)
   46.188020    0.000000    0.000000
    0.000000   46.188020    0.000000
    0.000000    0.000000   46.188020
 Fractional Co-ordinates
     1     0.000000    0.000000    0.000000   C        40.000000
     2     0.125000    0.125000    0.125000   O        80.000000
     3     0.250000    0.000000    0.000000   C        40.000000
     4     0.375000    0.125000    0.125000   O        80.000000
     5     0.500000    0.000000    0.000000   C        40.000000
     6     0.625000    0.125000    0.125000   O        80.000000
     7     0.750000    0.000000    0.000000   C        40.000000
     8     0.875000    0.125000    0.125000   O        80.000000
     9     0.000000    0.250000    0.000000   C        40.000000
    10     0.125000    0.375000    0.125000   O        80.000000
    11     0.250000    0.250000    0.000000   C        40.000000
    12     0.375000    0.375000    0.125000   O        80.000000
    13     0.500000    0.250000    0.000000   C        40.000000
    14     0.625000    0.375000    0.125000   O        80.000000
    15     0.750000    0.250000    0.000000   C        40.000000
    16     0.875000    0.375000    0.125000   O        80.000000
    17     0.000000    0.500000    0.000000   C        40.000000
    18     0.125000    0.625000    0.125000   O        80.000000
    19     0.250000    0.500000    0.000000   C        40.000000
    20     0.375000    0.625000    0.125000   O        80.000000
    21     0.500000    0.500000    0.000000   C        40.000000
    22     0.625000    0.625000    0.125000   O        80.000000
    23     0.750000    0.500000    0.000000   C        40.000000
    24     0.875000    0.625000    0.125000   O        80.000000
    25     0.000000    0.750000    0.000000   C        40.000000
    26     0.125000    0.875000    0.125000   O        80.000000
    27     0.250000    0.750000    0.000000   C        40.000000
    28     0.375000    0.875000    0.125000   O        80.000000
    29     0.500000    0.750000    0.000000   C        40.000000
    30     0.625000    0.875000    0.125000   O        80.000000
    31     0.750000    0.750000    0.000000   C        40.000000
    32     0.875000    0.875000    0.125000   O        80.000000
    33     0.000000    0.000000    0.250000   C        40.000000
    34     0.125000    0.125000    0.375000   O        80.000000
    35     0.250000    0.000000    0.250000   C        40.000000
    36     0.375000    0.125000    0.375000   O        80.000000
    37     0.500000    0.000000    0.250000   C        40.000000
    38     0.625000    0.125000    0.375000   O        80.000000
    39     0.750000    0.000000    0.250000   C        40.000000
    40     0.875000    0.125000    0.375000   O        80.000000
    41     0.000000    0.250000    0.250000   C        40.000000
    42     0.125000    0.375000    0.375000   O        80.000000
    43     0.250000    0.250000    0.250000   C        40.000000
    44     0.375000    0.375000    0.375000   O        80.000000
    45     0.500000    0.250000    0.250000   C        40.000000
    46     0.625000    0.375000    0.375000   O        80.000000
    47     0.750000    0.250000    0.250000   C        40.000000
    48     0.875000    0.375000    0.375000   O        80.000000
    49     0.000000    0.500000    0.250000   C        40.000000
    50     0.125000    0.625000    0.375000   O        80.000000
    51     0.250000    0.500000    0.250000   C        40.000000
    52     0.375000    0.625000    0.375000   O        80.000000
    53     0.500000    0.500000    0.250000   C        40.000000
    54     0.625000    0.625000    0.375000   O        80.000000
    55     0.750000    0.500000    0.250000   C        40.000000
    56     0.875000    0.625000    0.375000   O        80.000000
    57     0.000000    0.750000    0.250000   C        40.000000
    58     0.125000    0.875000    0.375000   O        80.000000
    59     0.250000    0.750000    0.250000   C        40.000000
    60     0.375000    0.875000    0.375000   O        80.000000
    61     0.500000    0.750000    0.250000   C        40.000000
    62     0.625000    0.875000    0.375000   O        80.000000
    63     0.750000    0.750000    0.250000   C        40.000000
    64     0.875000    0.875000    0.375000   O        80.000000
    65     0.000000    0.000000    0.500000   C        40.000000
    66     0.125000    0.125000    0.625000   O        80.000000
    67     0.250000    0.000000    0.500000   C        40.000000
    68     0.375000    0.125000    0.625000   O        80.000000
    69     0.500000    0.000000    0.500000   C        40.000000
    70     0.625000    0.125000    0.625000   O        80.000000
    71     0.750000    0.000000    0.500000   C        40.000000
    72     0.875000    0.125000    0.625000   O        80.000000
    73     0.000000    0.250000    0.500000   C        40.000000
    74     0.125000    0.375000    0.625000   O        80.000000
    75     0.250000    0.250000    0.500000   C        40.000000
    76     0.375000    0.375000    0.625000   O        80.000000
    77     0.500000    0.250000    0.500000   C        40.000000
    78     0.625000    0.375000    0.625000   O        80.000000
    79     0.750000    0.250000    0.500000   C        40.000000
    80     0.875000    0.375000    0.625000   O        80.000000
    81     0.000000    0.500000    0.500000   C        40.000000
    82     0.125000    0.625000    0.625000   O        80.000000
    83     0.250000    0.500000    0.500000   C        40.000000
    84     0.375000    0.625000    0.625000   O        80.000000
    85     0.500000    0.500000    0.500000   C        40.000000
    86     0.625000    0.625000    0.625000   O        80.000000
    87     0.750000    0.500000    0.500000   C        40.000000
    88     0.875000    0.625000    0.625000   O        80.000000
    89     0.000000    0.750000    0.500000   C        40.000000
    90     0.125000    0.875000    0.625000   O        80.000000
    91     0.250000    0.750000    0.500000   C        40.000000
    92     0.375000    0.875000    0.625000   O        80.000000
    93     0.500000    0.750000    0.500000   C        40.000000
    94     0.625000    0.875000    0.625000   O        80.000000
    95     0.750000    0.750000    0.500000   C        40.000000
    96     0.875000    0.875000    0.625000   O        80.000000
    97     0.000000    0.000000    0.750000   C        40.000000
    98     0.125000    0.125000    0.875000   O        80.000000
    99     0.250000    0.000000    0.750000   C        40.000000
   100     0.375000    0.125000    0.875000   O        80.000000
   101     0.500000    0.000000    0.750000   C        40.000000
   102     0.625000    0.125000    0.875000   O        80.000000
   103     0.750000    0.000000    0.750000   C        40.000000
   104     0.875000    0.125000    0.875000   O        80.000000
   105     0.000000    0.250000    0.750000   C        40.000000
   106     0.125000    0.375000    0.875000   O        80.000000
   107     0.250000    0.250000    0.750000   C        40.000000
   108     0.375000    0.375000    0.875000   O        80.000000
   109     0.500000    0.250000    0.750000   C        40.000000
   110     0.625000    0.375000    0.875000   O        80.000000
   111     0.750000    0.250000    0.750000   C        40.000000
   112     0.875000    0.375000    0.875000   O        80.000000
   113     0.000000    0.500000    0.750000   C        40.000000
   114     0.125000    0.625000    0.875000   O        80.000000
   115     0.250000    0.500000    0.750000   C        40.000000
   116     0.375000    0.625000    0.875000   O        80.000000
   117     0.500000    0.500000    0.750000   C        40.000000
   118     0.625000    0.625000    0.875000   O        80.000000
   119     0.750000    0.500000    0.750000   C        40.000000
   120     0.875000    0.625000    0.875000   O        80.000000
   121     0.000000    0.750000    0.750000   C        40.000000
   122     0.125000    0.875000    0.875000   O        80.000000
   123     0.250000    0.750000    0.750000   C        40.000000
   124     0.375000    0.875000    0.875000   O        80.000000
   125     0.500000    0.750000    0.750000   C        40.000000
   126     0.625000    0.875000    0.875000   O        80.000000
   127     0.750000    0.750000    0.750000   C        40.000000
   128     0.875000    0.875000    0.875000   O        80.000000
 END header
     q-pt=    1    0.000000    0.000000    0.000000      1.000000
       1      -0.000022
       2      -0.000017
       3      -0.000016
       4     195.012670
       5     195.012670
       6     195.012670
       7     195.012670
       8     195.012670
       9     195.012670
      10     195.012670
      11     195.012670
      12     195.012670
      13     195.012670
      14     195.012670
      15     195.012670
      16     252.184609
      17     252.184609
      18     252.184609
      19     252.184609
      20     252.184609
      21     252.184609
      22     252.184609
      23     252.184609
      24     252.184609
      25     252.184609
      26     252.184609
      27     252.184609
      28     305.816462
      29     305.816462
      30     305.816462
      31     305.816462
      32     305.816462
      33     305.816462
      34     305.816462
      35     305.816462
      36     305.816462
      37     305.816462
      38     305.816462
      39     305.816462
      40     312.156511
      41     312.156511
      42     312.156511
      43     312.156511
      44     312.156511
      45     312.156511
      46     314.687099
      47     314.687099
      48     314.687099
      49     314.687099
      50     314.687099
      51     314.687099
      52     314.687099
      53     314.687099
      54     314.687099
      55     314.687099
      56     314.687099
      57     314.687099
      58     317.197499
      59     317.197499
      60     317.197499
      61     348.041594
      62     348.041594
      63     348.041594
      64     348.041594
      65     348.041594
      66     348.041594
      67     354.513291
      68     354.513291
      69     354.513291
      70     354.513291
      71     354.513291
      72     354.513291
      73     354.513291
      74     354.513291
      75     354.513291
      76     354.513291
      77     354.513291
      78     354.513291
      79     354.513291
      80     354.513291
      81     354.513291
      82     354.513291
      83     378.364841
      84     378.364841
      85     378.364841
      86     378.364841
      87     378.364841
      88     378.364841
      89     378.364841
      90     378.364841
      91     378.364841
      92     378.364841
      93     378.364841
      94     378.364841
      95     381.843802
      96     381.843802
      97     381.843802
      98     381.843802
      99     381.843802
     100     381.843802
     101     381.843802
     102     381.843802
     103     381.843802
     104     381.843802
     105     381.843802
     106     381.843802
     107     399.453909
     108     399.453909
     109     399.453909
     110     399.453909
     111     399.453909
     112     399.453909
     113     399.453909
     114     399.453909
     115     408.144406
     116     408.144406
     117     408.144406
     118     408.144406
     119     408.144406
     120     408.144406
     121     408.144406
     122     408.144406
     123     408.144406
     124     408.144406
     125     408.144406
     126     408.144406
     127     409.638417
     128     409.638417
     129     409.638417
     130     409.638417
     131     409.638417
     132     409.638417
     133     409.638417
     134     409.638417
     135     409.638417
     136     409.638417
     137     409.638417
     138     409.638417
     139     412.807042
     140     412.807042
     141     412.807042
     142     412.807042
     143     412.807042
     144     412.807042
     145     427.599597
     146     427.599597
     147     427.599597
     148     427.599597
     149     427.599597
     150     427.599597
     151     428.091276
     152     428.091276
     153     428.091276
     154     428.091276
     155     428.091276
     156     428.091276
     157     428.091276
     158     428.091276
     159     428.091276
     160     428.091276
     161     428.091276
     162     428.091276
     163     431.006311
     164     431.006311
     165     431.006311
     166     431.006311
     167     431.006311
     168     431.006311
     169     431.006311
     170     431.006311
     171     431.006311
     172     431.006311
     173     431.006311
     174     431.006311
     175     441.455971
     176     441.455971
     177     441.455971
     178     441.455971
     179     441.455971
     180     441.455971
     181     445.034763
     182     445.034763
     183     445.034763
     184     445.034763
     185     445.034763
     186     445.034763
     187     445.034763
     188     445.034763
     189     445.034763
     190     445.034763
     191     445.034763
     192     445.034763
     193     448.585005
     194     448.585005
     195     448.585005
     196     457.363566
     197     457.363566
     198     457.363566
     199     457.363566
     200     457.363566
     201     457.363566
     202     457.363566
     203     457.363566
     204     457.363566
     205     457.363566
     206     457.363566
     207     457.363566
     208     478.255146
     209     478.255146
     210     478.255146
     211     478.255146
     212     478.255146
     213     478.255146
     214     478.255146
     215     478.255146
     216     478.255146
     217     478.255146
     218     478.255146
     219     478.255146
     220     483.590655
     221     483.590655
     222     483.590655
     223     490.107186
     224     490.107186
     225     490.107186
     226     499.536055
     227     499.536055
     228     499.536055
     229     499.536055
     230     499.536055
     231     499.536055
     232     499.536055
     233     499.536055
     234     499.536055
     235     499.536055
     236     499.536055
     237     499.536055
     238     531.796355
     239     531.796355
     240     531.796355
     241     577.433781
     242     577.433781
     243     577.433781
     244     577.433781
     245     577.433781
     246     577.433781
     247     577.433781
     248     577.433781
     249     577.433781
     250     577.433781
     251     577.433781
     252     577.433781
     253     579.316205
     254     579.316205
     255     579.316205
     256     579.316205
     257     579.316205
     258     579.316205
     259     579.316205
     260     579.316205
     261     579.316205
     262     579.316205
     263     579.316205
     264     579.316205
     265     583.797317
     266     583.797317
     267     583.797317
     268     583.797317
     269     583.797317
     270     583.797317
     271     590.140886
     272     590.140886
     273     590.140886
     274     590.140886
     275     590.140886
     276     590.140886
     277     590.140886
     278     590.140886
     279     609.147447
     280     609.147447
     281     609.147447
     282     609.147447
     283     609.147447
     284     609.147447
     285     610.714643
     286     610.714643
     287     610.714643
     288     610.714643
     289     610.714643
     290     610.714643
     291     610.714643
     292     610.714643
     293     610.714643
     294     610.714643
     295     610.714643
     296     610.714643
     297     610.714643
     298     610.714643
     299     610.714643
     300     610.714643
     301     621.818494
     302     621.818494
     303     621.818494
     304     621.818494
     305     621.818494
     306     621.818494
     307     621.818494
     308     621.818494
     309     621.818494
     310     621.818494
     311     621.818494
     312     621.818494
     313     625.261757
     314     625.261757
     315     625.261757
     316     625.261757
     317     625.261757
     318     625.261757
     319     625.261757
     320     625.261757
     321     625.261757
     322     625.261757
     323     625.261757
     324     625.261757
     325     632.747573
     326     632.747573
     327     632.747573
     328     632.747573
     329     632.747573
     330     632.747573
     331     632.747573
     332     632.747573
     333     632.747573
     334     632.747573
     335     632.747573
     336     632.747573
     337     683.900463
     338     683.900463
     339     683.900463
     340     693.116230
     341     693.116230
     342     693.116230
     343     703.540720
     344     703.540720
     345     703.540720
     346     703.540720
     347     703.540720
     348     703.540720
     349     703.540720
     350     703.540720
     351     703.540720
     352     703.540720
     353     703.540720
     354     703.540720
     355     705.764405
     356     705.764405
     357     705.764405
     358     705.764405
     359     705.764405
     360     705.764405
     361     705.764405
     362     705.764405
     363     705.764405
     364     705.764405
     365     705.764405
     366     705.764405
     367     711.810987
     368     711.810987
     369     711.810987
     370     711.810987
     371     711.810987
     372     711.810987
     373     711.810987
     374     711.810987
     375     711.810987
     376     711.810987
     377     711.810987
     378     711.810987
     379     726.812251
     380     726.812251
     381     726.812251
     382     726.812251
     383     726.812251
     384     726.812251
                        Phonon Eigenvectors
Mode  Ion                 X                                 Y                                   Z
    1    1  0.004788452724  0.000000000000     -0.000743454434  0.000000000000     -0.072005911767  0.000000000000
